
# Coupling K, Temperature T, Avg Output L, Var Output L, Avg Output S, Var Output S, MSE
 -5.4068679e-01  1.8494996e+00  9.8755723e-01  4.7952359e-04  9.8655945e-01  1.4041079e-03  9.9556185e-07
 -5.3068679e-01  1.8843506e+00  9.8577343e-01  5.3933183e-04  9.8501466e-01  1.5607040e-03  5.7573870e-07
 -5.2068679e-01  1.9205404e+00  9.8391319e-01  6.1659238e-04  9.8299602e-01  1.7589593e-03  8.4120626e-07
 -5.1068679e-01  1.9581474e+00  9.8168154e-01  6.9417071e-04  9.8121812e-01  1.9378035e-03  2.1476476e-07
 -5.0068679e-01  1.9972566e+00  9.7910298e-01  8.0352603e-04  9.7871400e-01  2.1975320e-03  1.5129928e-07
 -4.9068679e-01  2.0379599e+00  9.7592395e-01  9.2199963e-04  9.7653530e-01  2.4027155e-03  3.7375405e-07
 -4.8068679e-01  2.0803567e+00  9.7295007e-01  1.0319636e-03  9.7399612e-01  2.6361395e-03  1.0942021e-06
 -4.7068679e-01  2.1245550e+00  9.6923211e-01  1.1802145e-03  9.7092237e-01  2.9194617e-03  2.8569699e-06
 -4.6068679e-01  2.1706722e+00  9.6506715e-01  1.3207453e-03  9.6787376e-01  3.2435375e-03  7.8770082e-06
 -4.5068679e-01  2.2188358e+00  9.6017145e-01  1.5013423e-03  9.6456139e-01  3.4839722e-03  1.9271561e-05
 -4.4068679e-01  2.2691853e+00  9.5466065e-01  1.6892218e-03  9.6072296e-01  3.8650230e-03  3.6751599e-05
 -4.3068679e-01  2.3218729e+00  9.4869188e-01  1.8689704e-03  9.5613251e-01  4.2081435e-03  5.5362959e-05
 -4.2068679e-01  2.3770653e+00  9.4259810e-01  2.0070681e-03  9.5238711e-01  4.4983124e-03  9.5824668e-05
 -4.1068679e-01  2.4349456e+00  9.3576084e-01  2.1698630e-03  9.4733246e-01  4.8848138e-03  1.3390227e-04
 -4.0068679e-01  2.4957149e+00  9.2947401e-01  2.2796238e-03  9.4368464e-01  5.1269652e-03  2.0194220e-04
 -3.9068679e-01  2.5595951e+00  9.2328819e-01  2.3460024e-03  9.3835694e-01  5.4572296e-03  2.2706740e-04
 -3.8068679e-01  2.6268313e+00  9.1675760e-01  2.3749533e-03  9.3389608e-01  5.7116272e-03  2.9372751e-04
 -3.7068679e-01  2.6976952e+00  9.1120268e-01  2.4197380e-03  9.2833656e-01  5.9363007e-03  2.9356981e-04
 -3.6068679e-01  2.7724885e+00  9.0629348e-01  2.3786221e-03  9.2354376e-01  6.1137536e-03  2.9757222e-04
 -3.5068679e-01  2.8515474e+00  9.0044661e-01  2.3956804e-03  9.1763175e-01  6.3950008e-03  2.9532915e-04
