
# Coupling K, Temperature T, Avg Output L, Var Output L, Avg Output S, Var Output S, MSE
 -5.4068679e-01  1.8494996e+00  9.8951148e-01  5.6999319e-05  9.8855874e-01  1.6512134e-04  9.0771145e-07
 -5.3068679e-01  1.8843506e+00  9.8784238e-01  6.4661656e-05  9.8684064e-01  1.8623292e-04  1.0034892e-06
 -5.2068679e-01  1.9205404e+00  9.8590681e-01  7.2655664e-05  9.8483319e-01  2.1299250e-04  1.1526481e-06
 -5.1068679e-01  1.9581474e+00  9.8367402e-01  8.3002343e-05  9.8267131e-01  2.3964527e-04  1.0054140e-06
 -5.0068679e-01  1.9972566e+00  9.8111241e-01  9.4716837e-05  9.8009949e-01  2.7433672e-04  1.0260223e-06
 -4.9068679e-01  2.0379599e+00  9.7814979e-01  1.0881626e-04  9.7708736e-01  3.1716592e-04  1.1287465e-06
 -4.8068679e-01  2.0803567e+00  9.7464219e-01  1.2588519e-04  9.7360325e-01  3.6534397e-04  1.0793906e-06
 -4.7068679e-01  2.1245550e+00  9.7061867e-01  1.4495586e-04  9.6949303e-01  4.2732000e-04  1.2670638e-06
 -4.6068679e-01  2.1706722e+00  9.6554345e-01  1.7352105e-04  9.6449203e-01  4.9839784e-04  1.1054755e-06
 -4.5068679e-01  2.2188358e+00  9.5930528e-01  2.0694976e-04  9.5914528e-01  5.6754508e-04  2.5598246e-08
 -4.4068679e-01  2.2691853e+00  9.5142213e-01  2.4474043e-04  9.5238363e-01  6.6398830e-04  9.2448962e-07
 -4.3068679e-01  2.3218729e+00  9.4167545e-01  2.7567462e-04  9.4433397e-01  7.4339708e-04  7.0677078e-06
 -4.2068679e-01  2.3770653e+00  9.3271937e-01  2.8697768e-04  9.3620891e-01  7.9776827e-04  1.2176877e-05
 -4.1068679e-01  2.4349456e+00  9.2636546e-01  2.7703924e-04  9.2834061e-01  8.4075994e-04  3.9012078e-06
 -4.0068679e-01  2.4957149e+00  9.2040547e-01  2.8213473e-04  9.2190636e-01  8.3095703e-04  2.2526485e-06
 -3.9068679e-01  2.5595951e+00  9.1506393e-01  2.8334234e-04  9.1541334e-01  8.1402999e-04  1.2209042e-07
 -3.8068679e-01  2.6268313e+00  9.1102674e-01  2.8280130e-04  9.1042941e-01  7.9359316e-04  3.5680951e-07
 -3.7068679e-01  2.6976952e+00  9.0637563e-01  2.8534535e-04  9.0553780e-01  8.1090617e-04  7.0195235e-07
 -3.6068679e-01  2.7724885e+00  9.0219427e-01  2.8137405e-04  9.0189950e-01  7.8340600e-04  8.6888730e-08
 -3.5068679e-01  2.8515474e+00  8.9859495e-01  2.7206411e-04  8.9811053e-01  7.9822307e-04  2.3465819e-07
