
# Coupling K, Temperature T, Avg Output L, Var Output L, Avg Output S, Var Output S, MSE
 -5.4068679e-01  1.8494996e+00  9.9055847e-01  2.0065007e-05  9.8956443e-01  5.7030147e-05  9.8811862e-07
 -5.3068679e-01  1.8843506e+00  9.8884943e-01  2.2426385e-05  9.8787230e-01  6.4973019e-05  9.5479626e-07
 -5.2068679e-01  1.9205404e+00  9.8689998e-01  2.5347460e-05  9.8585939e-01  7.3195141e-05  1.0828335e-06
 -5.1068679e-01  1.9581474e+00  9.8466811e-01  2.8921615e-05  9.8363080e-01  8.3451629e-05  1.0759978e-06
 -5.0068679e-01  1.9972566e+00  9.8211811e-01  3.2777960e-05  9.8106716e-01  9.5192039e-05  1.1044959e-06
 -4.9068679e-01  2.0379599e+00  9.7914335e-01  3.7153541e-05  9.7817693e-01  1.0822086e-04  9.3397027e-07
 -4.8068679e-01  2.0803567e+00  9.7567660e-01  4.3226654e-05  9.7477422e-01  1.2394867e-04  8.1428237e-07
 -4.7068679e-01  2.1245550e+00  9.7162294e-01  5.0250016e-05  9.7071200e-01  1.4467341e-04  8.2981503e-07
 -4.6068679e-01  2.1706722e+00  9.6656128e-01  5.9596448e-05  9.6562258e-01  1.7001967e-04  8.8116408e-07
 -4.5068679e-01  2.2188358e+00  9.6023638e-01  7.1878674e-05  9.5941062e-01  2.0708726e-04  6.8187795e-07
 -4.4068679e-01  2.2691853e+00  9.5114770e-01  9.1434338e-05  9.5126992e-01  2.4949740e-04  1.4936079e-08
 -4.3068679e-01  2.3218729e+00  9.4056437e-01  9.4470909e-05  9.4152458e-01  2.7845521e-04  9.2200188e-07
 -4.2068679e-01  2.3770653e+00  9.3290868e-01  9.6412727e-05  9.3324865e-01  2.8658412e-04  1.1558074e-07
 -4.1068679e-01  2.4349456e+00  9.2713450e-01  9.2020113e-05  9.2592115e-01  2.8255102e-04  1.4722224e-06
 -4.0068679e-01  2.4957149e+00  9.2115087e-01  9.3740862e-05  9.2031994e-01  2.7836723e-04  6.9043537e-07
 -3.9068679e-01  2.5595951e+00  9.1608359e-01  9.4582017e-05  9.1526325e-01  2.7820502e-04  6.7295430e-07
 -3.8068679e-01  2.6268313e+00  9.1183281e-01  9.5974503e-05  9.1064229e-01  2.7682825e-04  1.4173316e-06
 -3.7068679e-01  2.6976952e+00  9.0732575e-01  9.5300055e-05  9.0652394e-01  2.7928693e-04  6.4291339e-07
 -3.6068679e-01  2.7724885e+00  9.0355537e-01  8.9857168e-05  9.0232024e-01  2.7986869e-04  1.5255516e-06
 -3.5068679e-01  2.8515474e+00  8.9875379e-01  1.0337918e-04  8.9946265e-01  2.7247273e-04  5.0247736e-07
