
# Coupling K, Temperature T, Avg Output L, Var Output L, Avg Output S, Var Output S, MSE
 -5.4068679e-01  1.8494996e+00  9.8856521e-01  1.6498053e-04  9.8748111e-01  4.8130734e-04  1.1752645e-06
 -5.3068679e-01  1.8843506e+00  9.8677814e-01  1.8889108e-04  9.8589703e-01  5.4012878e-04  7.7636672e-07
 -5.2068679e-01  1.9205404e+00  9.8494073e-01  2.0899412e-04  9.8389957e-01  6.1156561e-04  1.0840019e-06
 -5.1068679e-01  1.9581474e+00  9.8269676e-01  2.3899339e-04  9.8149961e-01  7.0150553e-04  1.4331518e-06
 -5.0068679e-01  1.9972566e+00  9.8018882e-01  2.7043113e-04  9.7905089e-01  7.9059609e-04  1.2948779e-06
 -4.9068679e-01  2.0379599e+00  9.7702118e-01  3.1844184e-04  9.7624634e-01  8.9966273e-04  6.0037603e-07
 -4.8068679e-01  2.0803567e+00  9.7367890e-01  3.6038032e-04  9.7271437e-01  1.0358556e-03  9.3031135e-07
 -4.7068679e-01  2.1245550e+00  9.6954795e-01  4.2313568e-04  9.6926056e-01  1.1600461e-03  8.2591845e-08
 -4.6068679e-01  2.1706722e+00  9.6460139e-01  4.9684858e-04  9.6511756e-01  1.3355888e-03  2.6643117e-07
 -4.5068679e-01  2.2188358e+00  9.5894680e-01  5.7039329e-04  9.6012851e-01  1.5080464e-03  1.3964237e-06
 -4.4068679e-01  2.2691853e+00  9.5183108e-01  6.7048352e-04  9.5506138e-01  1.6695283e-03  1.0434854e-05
 -4.3068679e-01  2.3218729e+00  9.4412793e-01  7.4593065e-04  9.4884651e-01  1.8554535e-03  2.2265049e-05
 -4.2068679e-01  2.3770653e+00  9.3630719e-01  8.0230981e-04  9.4271413e-01  2.0040765e-03  4.1048928e-05
 -4.1068679e-01  2.4349456e+00  9.2837972e-01  8.3078559e-04  9.3644109e-01  2.1331451e-03  6.4985728e-05
 -4.0068679e-01  2.4957149e+00  9.2192947e-01  8.0962508e-04  9.2936168e-01  2.2483932e-03  5.5237663e-05
 -3.9068679e-01  2.5595951e+00  9.1594505e-01  8.2208119e-04  9.2338980e-01  2.3277522e-03  5.5424261e-05
 -3.8068679e-01  2.6268313e+00  9.1072890e-01  8.0199699e-04  9.1649563e-01  2.3859464e-03  3.3255081e-05
 -3.7068679e-01  2.6976952e+00  9.0549317e-01  8.2633753e-04  9.1012673e-01  2.4392487e-03  2.1469914e-05
 -3.6068679e-01  2.7724885e+00  9.0220835e-01  7.9943267e-04  9.0559713e-01  2.4161167e-03  1.1483831e-05
 -3.5068679e-01  2.8515474e+00  8.9774224e-01  8.0184009e-04  9.0072008e-01  2.3802049e-03  8.8675054e-06
